timestamp,softirq_node_total_latency_us
2026-01-08 11:40:12,9081
2026-01-08 11:40:13,42820
2026-01-08 11:40:14,51897
2026-01-08 11:40:15,50103
2026-01-08 11:40:16,32612
2026-01-08 11:40:17,41765
2026-01-08 11:40:18,124567
2026-01-08 11:40:19,116733
2026-01-08 11:40:20,118227
2026-01-08 11:40:21,121637
2026-01-08 11:40:22,122065
2026-01-08 11:40:23,114350
2026-01-08 11:40:24,110616
2026-01-08 11:40:25,124718
2026-01-08 11:40:26,100766
2026-01-08 11:40:27,107294
2026-01-08 11:40:28,106765
2026-01-08 11:40:29,115069
2026-01-08 11:40:30,114693
2026-01-08 11:40:31,114830
2026-01-08 11:40:32,110701
2026-01-08 11:40:33,111655
2026-01-08 11:40:34,110544
2026-01-08 11:40:35,111320
2026-01-08 11:40:36,122180
2026-01-08 11:40:37,116317
2026-01-08 11:40:38,118038
2026-01-08 11:40:39,117254
2026-01-08 11:40:40,122249
2026-01-08 11:40:41,116425
2026-01-08 11:40:42,117898
2026-01-08 11:40:43,105347
2026-01-08 11:40:44,107379
2026-01-08 11:40:45,110970
2026-01-08 11:40:46,103970
2026-01-08 11:40:47,114481
2026-01-08 11:40:48,105952
2026-01-08 11:40:49,117611
2026-01-08 11:40:50,120779
2026-01-08 11:40:51,102219
2026-01-08 11:40:52,109747
2026-01-08 11:40:53,107938
2026-01-08 11:40:54,110286
2026-01-08 11:40:55,115452
2026-01-08 11:40:56,99073
2026-01-08 11:40:57,111080
2026-01-08 11:40:58,117539
2026-01-08 11:40:59,118194
2026-01-08 11:41:00,114387
2026-01-08 11:41:01,120680
2026-01-08 11:41:02,107399
2026-01-08 11:41:03,101754
2026-01-08 11:41:04,106508
2026-01-08 11:41:05,118783
2026-01-08 11:41:06,111620
2026-01-08 11:41:07,104099
2026-01-08 11:41:08,103887
2026-01-08 11:41:09,123112
2026-01-08 11:41:10,115241
2026-01-08 11:41:11,107997
2026-01-08 11:41:12,107056
2026-01-08 11:41:13,109531
2026-01-08 11:41:14,110028
2026-01-08 11:41:15,118218
2026-01-08 11:41:16,97658
2026-01-08 11:41:17,101128
2026-01-08 11:41:18,112105
2026-01-08 11:41:19,114350
2026-01-08 11:41:20,113397
2026-01-08 11:41:21,119026
2026-01-08 11:41:22,111149
2026-01-08 11:41:23,110828
2026-01-08 11:41:24,118441
2026-01-08 11:41:25,120430
2026-01-08 11:41:26,102621
2026-01-08 11:41:27,106144
2026-01-08 11:41:28,99496
2026-01-08 11:41:29,110846
2026-01-08 11:41:30,117289
2026-01-08 11:41:31,112535
2026-01-08 11:41:32,110911
2026-01-08 11:41:33,115434
2026-01-08 11:41:34,111419
2026-01-08 11:41:35,110133
2026-01-08 11:41:36,101743
2026-01-08 11:41:37,106445
2026-01-08 11:41:38,103702
2026-01-08 11:41:39,112902
2026-01-08 11:41:40,111676
2026-01-08 11:41:41,110224
2026-01-08 11:41:42,115855
2026-01-08 11:41:43,111711
2026-01-08 11:41:44,107123
2026-01-08 11:41:45,118435
2026-01-08 11:41:46,105676
2026-01-08 11:41:47,98846
2026-01-08 11:41:48,101391
2026-01-08 11:41:49,111008
2026-01-08 11:41:50,103279
2026-01-08 11:41:51,108478
2026-01-08 11:41:52,105523
2026-01-08 11:41:53,114507
2026-01-08 11:41:54,117145
2026-01-08 11:41:55,108497
2026-01-08 11:41:56,99816
2026-01-08 11:41:57,112078
2026-01-08 11:41:58,102861
2026-01-08 11:41:59,112254
2026-01-08 11:42:00,111007
2026-01-08 11:42:01,117150
2026-01-08 11:42:02,113308
2026-01-08 11:42:03,108721
2026-01-08 11:42:04,106504
2026-01-08 11:42:05,113907
2026-01-08 11:42:06,110338
2026-01-08 11:42:07,109204
2026-01-08 11:42:08,105238
2026-01-08 11:42:09,116731
2026-01-08 11:42:10,115888
2026-01-08 11:42:11,108655
2026-01-08 11:42:12,111111
2026-01-08 11:42:13,111309
2026-01-08 11:42:14,123408
2026-01-08 11:42:15,119958
2026-01-08 11:42:16,104755
2026-01-08 11:42:17,106180
2026-01-08 11:42:18,104129
2026-01-08 11:42:19,101658
2026-01-08 11:42:20,101556
2026-01-08 11:42:21,188756
2026-01-08 11:42:22,128350
2026-01-08 11:42:23,114698
2026-01-08 11:42:24,127571
2026-01-08 11:42:25,116650
2026-01-08 11:42:26,116366
2026-01-08 11:42:27,109671
2026-01-08 11:42:28,100459
2026-01-08 11:42:29,111389
2026-01-08 11:42:30,114553
2026-01-08 11:42:31,148251
2026-01-08 11:42:32,143307
2026-01-08 11:42:33,112874
2026-01-08 11:42:34,161568
2026-01-08 11:42:35,151122
2026-01-08 11:42:36,102981
2026-01-08 11:42:37,111989
2026-01-08 11:42:38,103968
2026-01-08 11:42:39,108695
2026-01-08 11:42:40,110008
2026-01-08 11:42:41,112736
2026-01-08 11:42:42,104071
2026-01-08 11:42:43,99283
2026-01-08 11:42:44,98339
2026-01-08 11:42:45,126559
2026-01-08 11:42:46,106454
2026-01-08 11:42:47,101583
2026-01-08 11:42:48,106028
2026-01-08 11:42:49,111563
2026-01-08 11:42:50,113428
2026-01-08 11:42:51,121883
2026-01-08 11:42:52,108711
2026-01-08 11:42:53,116179
2026-01-08 11:42:54,111293
2026-01-08 11:42:55,109923
2026-01-08 11:42:56,99577
2026-01-08 11:42:57,113350
2026-01-08 11:42:58,106561
2026-01-08 11:42:59,119054
2026-01-08 11:43:00,108164
2026-01-08 11:43:01,126934
2026-01-08 11:43:02,114152
2026-01-08 11:43:03,106604
2026-01-08 11:43:04,111372
2026-01-08 11:43:05,107740
2026-01-08 11:43:06,109552
2026-01-08 11:43:07,107960
2026-01-08 11:43:08,103508
2026-01-08 11:43:09,114171
2026-01-08 11:43:10,118051
2026-01-08 11:43:11,104605
2026-01-08 11:43:12,116775
2026-01-08 11:43:13,109268
2026-01-08 11:43:14,116595
2026-01-08 11:43:15,109788
2026-01-08 11:43:16,101020
2026-01-08 11:43:17,107995
2026-01-08 11:43:18,109036
2026-01-08 11:43:19,107829
2026-01-08 11:43:20,107373
2026-01-08 11:43:21,110112
2026-01-08 11:43:22,120657
2026-01-08 11:43:23,103669
2026-01-08 11:43:24,116717
2026-01-08 11:43:25,111012
2026-01-08 11:43:26,102614
2026-01-08 11:43:27,101794
2026-01-08 11:43:28,105830
2026-01-08 11:43:29,117032
2026-01-08 11:43:30,116163
2026-01-08 11:43:31,114879
2026-01-08 11:43:32,128398
2026-01-08 11:43:33,113134
2026-01-08 11:43:34,122658
2026-01-08 11:43:35,111167
2026-01-08 11:43:36,98797
2026-01-08 11:43:37,101888
2026-01-08 11:43:38,106226
2026-01-08 11:43:39,114436
2026-01-08 11:43:40,105369
2026-01-08 11:43:41,109145
2026-01-08 11:43:42,109363
2026-01-08 11:43:43,96857
2026-01-08 11:43:44,104021
2026-01-08 11:43:45,121472
2026-01-08 11:43:46,110508
2026-01-08 11:43:47,102622
2026-01-08 11:43:48,110624
2026-01-08 11:43:49,109169
2026-01-08 11:43:50,110896
2026-01-08 11:43:51,110125
2026-01-08 11:43:52,101401
2026-01-08 11:43:53,117286
2026-01-08 11:43:54,134817
2026-01-08 11:43:55,107015
2026-01-08 11:43:56,99080
2026-01-08 11:43:57,122190
2026-01-08 11:43:58,102850
2026-01-08 11:43:59,124043
2026-01-08 11:44:00,107911
2026-01-08 11:44:01,109662
2026-01-08 11:44:02,107015
2026-01-08 11:44:03,104339
2026-01-08 11:44:04,105084
2026-01-08 11:44:05,116656
2026-01-08 11:44:06,108893
2026-01-08 11:44:07,103355
2026-01-08 11:44:08,101976
2026-01-08 11:44:09,110790
2026-01-08 11:44:10,120674
2026-01-08 11:44:11,106529
2026-01-08 11:44:12,101842
2026-01-08 11:44:13,108092
2026-01-08 11:44:14,123555
2026-01-08 11:44:15,118473
2026-01-08 11:44:16,121927
2026-01-08 11:44:17,106696
2026-01-08 11:44:18,112025
2026-01-08 11:44:19,130075
2026-01-08 11:44:20,105778
2026-01-08 11:44:21,107363
2026-01-08 11:44:22,119720
2026-01-08 11:44:23,117384
2026-01-08 11:44:24,113834
2026-01-08 11:44:25,108229
2026-01-08 11:44:26,107072
2026-01-08 11:44:27,112024
2026-01-08 11:44:28,98920
2026-01-08 11:44:29,115068
2026-01-08 11:44:30,133020
2026-01-08 11:44:31,104838
2026-01-08 11:44:32,120753
2026-01-08 11:44:33,117711
2026-01-08 11:44:34,120240
2026-01-08 11:44:35,108289
2026-01-08 11:44:36,96730
2026-01-08 11:44:37,107281
2026-01-08 11:44:38,108975
2026-01-08 11:44:39,113147
2026-01-08 11:44:40,105062
2026-01-08 11:44:41,116252
2026-01-08 11:44:42,109211
2026-01-08 11:44:43,110648
2026-01-08 11:44:44,103439
2026-01-08 11:44:45,121518
2026-01-08 11:44:46,112353
2026-01-08 11:44:47,118703
2026-01-08 11:44:48,103972
2026-01-08 11:44:49,123851
2026-01-08 11:44:50,113932
2026-01-08 11:44:51,108016
2026-01-08 11:44:52,108719
2026-01-08 11:44:53,109258
2026-01-08 11:44:54,113130
2026-01-08 11:44:55,110321
2026-01-08 11:44:56,628237
2026-01-08 11:44:57,872310
2026-01-08 11:44:58,867066
2026-01-08 11:44:59,856342
2026-01-08 11:45:00,851502
2026-01-08 11:45:01,857146
2026-01-08 11:45:02,864497
2026-01-08 11:45:03,858354
2026-01-08 11:45:04,854982
2026-01-08 11:45:05,854434
2026-01-08 11:45:06,854948
2026-01-08 11:45:07,857111
2026-01-08 11:45:08,863952
2026-01-08 11:45:09,860774
2026-01-08 11:45:10,847014
2026-01-08 11:45:11,864063
2026-01-08 11:45:12,868427
2026-01-08 11:45:13,846620
2026-01-08 11:45:14,841424
2026-01-08 11:45:15,852830
2026-01-08 11:45:16,874209
2026-01-08 11:45:17,853460
2026-01-08 11:45:18,858965
2026-01-08 11:45:19,825113
2026-01-08 11:45:20,851699
2026-01-08 11:45:21,838716
2026-01-08 11:45:22,858344
2026-01-08 11:45:23,853444
2026-01-08 11:45:24,863495
2026-01-08 11:45:25,839492
2026-01-08 11:45:26,810374
2026-01-08 11:45:27,852681
2026-01-08 11:45:28,870942
2026-01-08 11:45:29,867374
2026-01-08 11:45:30,859665
2026-01-08 11:45:31,860824
2026-01-08 11:45:32,862090
2026-01-08 11:45:33,863141
2026-01-08 11:45:34,859672
2026-01-08 11:45:35,843467
2026-01-08 11:45:36,858231
2026-01-08 11:45:37,866463
2026-01-08 11:45:38,858697
2026-01-08 11:45:39,852671
2026-01-08 11:45:40,878452
2026-01-08 11:45:41,868031
2026-01-08 11:45:42,857484
2026-01-08 11:45:43,845161
2026-01-08 11:45:44,844880
2026-01-08 11:45:45,860716
2026-01-08 11:45:46,864598
2026-01-08 11:45:47,854202
2026-01-08 11:45:48,859729
2026-01-08 11:45:49,849236
2026-01-08 11:45:50,859712
2026-01-08 11:45:51,862479
2026-01-08 11:45:52,869227
2026-01-08 11:45:53,853795
2026-01-08 11:45:54,824718
2026-01-08 11:45:55,853686
2026-01-08 11:45:56,857366
2026-01-08 11:45:57,847594
2026-01-08 11:45:58,854368
2026-01-08 11:45:59,830411
2026-01-08 11:46:00,855171
2026-01-08 11:46:01,854981
2026-01-08 11:46:02,855164
2026-01-08 11:46:03,862512
2026-01-08 11:46:04,852303
2026-01-08 11:46:05,856269
2026-01-08 11:46:06,848495
2026-01-08 11:46:07,851539
2026-01-08 11:46:08,866098
2026-01-08 11:46:09,853436
2026-01-08 11:46:10,854301
2026-01-08 11:46:11,869998
2026-01-08 11:46:12,861568
2026-01-08 11:46:13,847765
2026-01-08 11:46:14,857739
2026-01-08 11:46:15,853634
2026-01-08 11:46:16,849412
2026-01-08 11:46:17,855975
2026-01-08 11:46:18,847977
2026-01-08 11:46:19,834598
2026-01-08 11:46:20,846280
2026-01-08 11:46:21,847595
2026-01-08 11:46:22,851476
2026-01-08 11:46:23,852416
2026-01-08 11:46:24,850990
2026-01-08 11:46:25,842819
2026-01-08 11:46:26,870214
2026-01-08 11:46:27,847353
2026-01-08 11:46:28,846688
2026-01-08 11:46:29,829456
2026-01-08 11:46:30,857951
2026-01-08 11:46:31,873886
2026-01-08 11:46:32,850821
2026-01-08 11:46:33,853014
2026-01-08 11:46:34,870730
2026-01-08 11:46:35,864456
2026-01-08 11:46:36,826978
2026-01-08 11:46:37,869476
2026-01-08 11:46:38,873483
2026-01-08 11:46:39,848351
2026-01-08 11:46:40,846334
2026-01-08 11:46:41,862371
2026-01-08 11:46:42,846867
2026-01-08 11:46:43,856472
2026-01-08 11:46:44,862081
2026-01-08 11:46:45,860986
2026-01-08 11:46:46,863193
2026-01-08 11:46:47,857276
2026-01-08 11:46:48,844946
2026-01-08 11:46:49,844934
2026-01-08 11:46:50,841327
2026-01-08 11:46:51,849427
2026-01-08 11:46:52,846173
2026-01-08 11:46:53,851810
2026-01-08 11:46:54,856809
2026-01-08 11:46:55,817134
2026-01-08 11:46:56,898244
2026-01-08 11:46:57,954884
2026-01-08 11:46:58,949011
2026-01-08 11:46:59,942994
2026-01-08 11:47:00,899891
2026-01-08 11:47:01,945953
2026-01-08 11:47:02,966953
2026-01-08 11:47:03,944792
2026-01-08 11:47:04,930596
2026-01-08 11:47:05,950592
2026-01-08 11:47:06,964880
2026-01-08 11:47:07,918773
2026-01-08 11:47:08,939387
2026-01-08 11:47:09,953098
2026-01-08 11:47:10,955180
2026-01-08 11:47:11,971753
2026-01-08 11:47:12,962607
2026-01-08 11:47:13,942856
2026-01-08 11:47:14,959615
2026-01-08 11:47:15,973028
2026-01-08 11:47:16,952038
2026-01-08 11:47:17,963595
2026-01-08 11:47:18,969261
2026-01-08 11:47:19,977348
2026-01-08 11:47:20,942109
2026-01-08 11:47:21,956663
2026-01-08 11:47:22,940858
2026-01-08 11:47:23,963782
2026-01-08 11:47:24,953626
2026-01-08 11:47:25,966579
2026-01-08 11:47:26,953781
2026-01-08 11:47:27,967714
2026-01-08 11:47:28,954060
2026-01-08 11:47:29,960136
2026-01-08 11:47:30,950713
2026-01-08 11:47:31,934370
2026-01-08 11:47:32,968495
2026-01-08 11:47:33,959956
2026-01-08 11:47:34,953844
2026-01-08 11:47:35,950213
2026-01-08 11:47:36,975518
2026-01-08 11:47:37,969002
2026-01-08 11:47:38,973703
2026-01-08 11:47:39,947581
2026-01-08 11:47:40,948452
2026-01-08 11:47:41,957452
2026-01-08 11:47:42,952956
2026-01-08 11:47:43,951808
2026-01-08 11:47:44,965564
2026-01-08 11:47:45,965805
2026-01-08 11:47:46,977932
2026-01-08 11:47:47,963383
2026-01-08 11:47:48,944883
2026-01-08 11:47:49,938644
2026-01-08 11:47:50,961546
2026-01-08 11:47:51,957008
2026-01-08 11:47:52,971058
2026-01-08 11:47:53,955688
2026-01-08 11:47:54,970216
2026-01-08 11:47:55,962572
2026-01-08 11:47:56,1298583
2026-01-08 11:47:57,1470781
2026-01-08 11:47:58,1522029
2026-01-08 11:47:59,1530500
2026-01-08 11:48:00,1541662
2026-01-08 11:48:01,1465887
2026-01-08 11:48:02,1497384
2026-01-08 11:48:03,1479041
2026-01-08 11:48:04,1495339
2026-01-08 11:48:05,1475757
2026-01-08 11:48:06,1492363
2026-01-08 11:48:07,1497556
2026-01-08 11:48:08,1462498
2026-01-08 11:48:09,1475226
2026-01-08 11:48:10,1487614
2026-01-08 11:48:11,1507593
2026-01-08 11:48:12,1467937
2026-01-08 11:48:13,1467325
2026-01-08 11:48:14,1483864
2026-01-08 11:48:15,1478797
2026-01-08 11:48:16,1520231
2026-01-08 11:48:17,1460630
2026-01-08 11:48:18,1483677
2026-01-08 11:48:19,1506151
2026-01-08 11:48:20,1503031
2026-01-08 11:48:21,1416952
2026-01-08 11:48:22,1436238
2026-01-08 11:48:23,1474235
2026-01-08 11:48:24,1469310
2026-01-08 11:48:25,1491134
2026-01-08 11:48:26,1469675
2026-01-08 11:48:27,1479156
2026-01-08 11:48:28,1463979
2026-01-08 11:48:29,1446158
2026-01-08 11:48:30,1414954
2026-01-08 11:48:31,1455383
2026-01-08 11:48:32,1460272
2026-01-08 11:48:33,1539936
2026-01-08 11:48:34,1451697
2026-01-08 11:48:35,1492633
2026-01-08 11:48:36,1525634
2026-01-08 11:48:37,1413094
2026-01-08 11:48:38,1475804
2026-01-08 11:48:39,1463567
2026-01-08 11:48:40,1487366
2026-01-08 11:48:41,1514227
2026-01-08 11:48:42,1521986
2026-01-08 11:48:43,1515580
2026-01-08 11:48:44,1425725
2026-01-08 11:48:45,1461711
2026-01-08 11:48:46,1521326
2026-01-08 11:48:47,1510904
2026-01-08 11:48:48,1473032
2026-01-08 11:48:49,1476110
2026-01-08 11:48:50,1395343
2026-01-08 11:48:51,1450002
2026-01-08 11:48:52,1481882
2026-01-08 11:48:53,1519215
2026-01-08 11:48:54,1493017
2026-01-08 11:48:55,1503616
2026-01-08 11:48:56,1510474
2026-01-08 11:48:57,1526147
2026-01-08 11:48:58,1492563
2026-01-08 11:48:59,1456702
2026-01-08 11:49:00,1507229
2026-01-08 11:49:01,1459467
2026-01-08 11:49:02,1475802
2026-01-08 11:49:03,1496441
2026-01-08 11:49:04,1512516
2026-01-08 11:49:05,1539300
2026-01-08 11:49:06,1533300
2026-01-08 11:49:07,1388212
2026-01-08 11:49:08,1450921
2026-01-08 11:49:09,1484735
2026-01-08 11:49:10,1490478
2026-01-08 11:49:11,1523735
2026-01-08 11:49:12,1489807
2026-01-08 11:49:13,1496991
2026-01-08 11:49:14,1517261
2026-01-08 11:49:15,1524568
2026-01-08 11:49:16,1496810
2026-01-08 11:49:17,1505947
2026-01-08 11:49:18,1528480
2026-01-08 11:49:19,1518773
2026-01-08 11:49:20,1497057
2026-01-08 11:49:21,1419989
2026-01-08 11:49:22,1476729
2026-01-08 11:49:23,1510157
2026-01-08 11:49:24,1501190
2026-01-08 11:49:25,1471056
2026-01-08 11:49:26,1514180
2026-01-08 11:49:27,1485027
2026-01-08 11:49:28,1526195
2026-01-08 11:49:29,1469579
2026-01-08 11:49:30,1498135
2026-01-08 11:49:31,1521440
2026-01-08 11:49:32,1420091
2026-01-08 11:49:33,1514257
2026-01-08 11:49:34,1519236
2026-01-08 11:49:35,1489245
2026-01-08 11:49:36,1517064
2026-01-08 11:49:37,1477315
2026-01-08 11:49:38,1377268
2026-01-08 11:49:39,1447262
2026-01-08 11:49:40,1470956
2026-01-08 11:49:41,1545333
2026-01-08 11:49:42,1513428
2026-01-08 11:49:43,1545463
2026-01-08 11:49:44,1537404
2026-01-08 11:49:45,1553634
2026-01-08 11:49:46,1527060
2026-01-08 11:49:47,1491356
2026-01-08 11:49:48,1527580
2026-01-08 11:49:49,1461310
2026-01-08 11:49:50,1504002
2026-01-08 11:49:51,1354483
2026-01-08 11:49:52,1478166
2026-01-08 11:49:53,1530544
2026-01-08 11:49:54,1498238
2026-01-08 11:49:55,1489928
2026-01-08 11:49:56,1662057
2026-01-08 11:49:57,1726172
2026-01-08 11:49:58,1758681
2026-01-08 11:49:59,1751185
2026-01-08 11:50:00,1725881
2026-01-08 11:50:01,1719643
2026-01-08 11:50:02,1734678
2026-01-08 11:50:03,1804857
2026-01-08 11:50:04,1789259
2026-01-08 11:50:05,1735239
2026-01-08 11:50:06,1716341
2026-01-08 11:50:07,1770029
2026-01-08 11:50:08,1762947
2026-01-08 11:50:09,1723055
2026-01-08 11:50:10,1755601
2026-01-08 11:50:11,1777771
2026-01-08 11:50:12,1593859
2026-01-08 11:50:13,1624174
2026-01-08 11:50:14,1683397
2026-01-08 11:50:15,1714063
2026-01-08 11:50:16,1765171
2026-01-08 11:50:17,1774780
2026-01-08 11:50:18,1732210
2026-01-08 11:50:19,1743119
2026-01-08 11:50:20,1838778
2026-01-08 11:50:21,1704271
2026-01-08 11:50:22,1610990
2026-01-08 11:50:23,1789382
2026-01-08 11:50:24,1760550
2026-01-08 11:50:25,1701827
2026-01-08 11:50:26,1689550
2026-01-08 11:50:27,1586278
2026-01-08 11:50:28,1693398
2026-01-08 11:50:29,1753951
2026-01-08 11:50:30,1743529
2026-01-08 11:50:31,1788313
2026-01-08 11:50:32,1596867
2026-01-08 11:50:33,1355015
2026-01-08 11:50:34,1458416
2026-01-08 11:50:35,1560319
2026-01-08 11:50:36,1309232
2026-01-08 11:50:37,1599269
2026-01-08 11:50:38,1397948
2026-01-08 11:50:39,1314225
2026-01-08 11:50:40,1594624
2026-01-08 11:50:41,1473027
2026-01-08 11:50:42,1433799
2026-01-08 11:50:43,1553754
2026-01-08 11:50:44,1280121
2026-01-08 11:50:45,1662558
2026-01-08 11:50:46,1282465
2026-01-08 11:50:47,1323165
2026-01-08 11:50:48,1478701
2026-01-08 11:50:49,1268087
2026-01-08 11:50:50,1462728
2026-01-08 11:50:51,1456738
2026-01-08 11:50:52,1264276
2026-01-08 11:50:53,1410009
2026-01-08 11:50:54,1291859
2026-01-08 11:50:55,1311926
2026-01-08 11:50:56,1553313
2026-01-08 11:50:57,1297860
2026-01-08 11:50:58,1595414
2026-01-08 11:50:59,1325180
2026-01-08 11:51:00,1365478
2026-01-08 11:51:01,1206933
2026-01-08 11:51:02,1272549
2026-01-08 11:51:03,1222355
2026-01-08 11:51:04,1221676
2026-01-08 11:51:05,1283030
2026-01-08 11:51:06,1336064
2026-01-08 11:51:07,1271828
2026-01-08 11:51:08,1290028
2026-01-08 11:51:09,1233834
2026-01-08 11:51:10,1233899
2026-01-08 11:51:11,1236794
2026-01-08 11:51:12,1278278
2026-01-08 11:51:13,1238036
2026-01-08 11:51:14,1332944
2026-01-08 11:51:15,1395225
2026-01-08 11:51:16,1218171
2026-01-08 11:51:17,1244444
2026-01-08 11:51:18,1239556
2026-01-08 11:51:19,1267489
2026-01-08 11:51:20,1305313
2026-01-08 11:51:21,1284974
2026-01-08 11:51:22,1162446
2026-01-08 11:51:23,1295096
2026-01-08 11:51:24,1327022
2026-01-08 11:51:25,1211436
2026-01-08 11:51:26,1256462
2026-01-08 11:51:27,1341528
2026-01-08 11:51:28,1292970
2026-01-08 11:51:29,1246936
2026-01-08 11:51:30,1328673
2026-01-08 11:51:31,1246566
2026-01-08 11:51:32,1264757
2026-01-08 11:51:33,1282001
2026-01-08 11:51:34,1249142
2026-01-08 11:51:35,1481400
2026-01-08 11:51:36,1286048
2026-01-08 11:51:37,1187075
2026-01-08 11:51:38,1287791
2026-01-08 11:51:39,1168141
2026-01-08 11:51:40,1301874
2026-01-08 11:51:41,1236084
2026-01-08 11:51:42,1211007
2026-01-08 11:51:43,1238142
2026-01-08 11:51:44,1212824
2026-01-08 11:51:45,1346319
2026-01-08 11:51:46,1305825
2026-01-08 11:51:47,1209186
2026-01-08 11:51:48,1176826
2026-01-08 11:51:49,1369805
2026-01-08 11:51:50,1337513
2026-01-08 11:51:51,1247042
2026-01-08 11:51:52,1264166
2026-01-08 11:51:53,1305323
2026-01-08 11:51:54,1254534
2026-01-08 11:51:55,1229416
2026-01-08 11:51:56,1173396
2026-01-08 11:51:57,1152120
2026-01-08 11:51:58,1191964
2026-01-08 11:51:59,1230590
2026-01-08 11:52:00,1209777
2026-01-08 11:52:01,1206723
2026-01-08 11:52:02,1259986
2026-01-08 11:52:03,1255940
2026-01-08 11:52:04,1215326
2026-01-08 11:52:05,1305837
2026-01-08 11:52:06,1215895
2026-01-08 11:52:07,1236208
2026-01-08 11:52:08,1176146
2026-01-08 11:52:09,1229396
2026-01-08 11:52:10,1271879
2026-01-08 11:52:11,1197582
2026-01-08 11:52:12,1214992
2026-01-08 11:52:13,1227775
2026-01-08 11:52:14,1257247
2026-01-08 11:52:15,1211908
2026-01-08 11:52:16,1240889
2026-01-08 11:52:17,1269431
2026-01-08 11:52:18,1234329
2026-01-08 11:52:19,1224426
2026-01-08 11:52:20,1164620
2026-01-08 11:52:21,1169688
2026-01-08 11:52:22,1158985
2026-01-08 11:52:23,1192431
2026-01-08 11:52:24,1174184
2026-01-08 11:52:25,1079096
2026-01-08 11:52:26,1204584
2026-01-08 11:52:27,1160625
2026-01-08 11:52:28,1128487
2026-01-08 11:52:29,982926
2026-01-08 11:52:30,1227893
2026-01-08 11:52:31,1130594
2026-01-08 11:52:32,1141810
2026-01-08 11:52:33,1195110
2026-01-08 11:52:34,1183767
2026-01-08 11:52:35,1190938
2026-01-08 11:52:36,1149681
2026-01-08 11:52:37,1203126
2026-01-08 11:52:38,1252101
2026-01-08 11:52:39,1205592
2026-01-08 11:52:40,1127421
2026-01-08 11:52:41,1126207
2026-01-08 11:52:42,1163369
2026-01-08 11:52:43,1215973
2026-01-08 11:52:44,1206316
2026-01-08 11:52:45,1188816
2026-01-08 11:52:46,1150719
2026-01-08 11:52:47,1137898
2026-01-08 11:52:48,1204931
2026-01-08 11:52:49,1143557
2026-01-08 11:52:50,1227837
2026-01-08 11:52:51,1198166
2026-01-08 11:52:52,1126378
2026-01-08 11:52:53,1181912
2026-01-08 11:52:54,1089854
2026-01-08 11:52:55,1241016
2026-01-08 11:52:56,1242986
2026-01-08 11:52:57,1187302
2026-01-08 11:52:58,1186041
2026-01-08 11:52:59,1218134
2026-01-08 11:53:00,1265190
2026-01-08 11:53:01,1145343
2026-01-08 11:53:02,917763
2026-01-08 11:53:03,1041964
2026-01-08 11:53:04,1097936
2026-01-08 11:53:05,1130639
2026-01-08 11:53:06,1032298
2026-01-08 11:53:07,1203597
2026-01-08 11:53:08,1167441
2026-01-08 11:53:09,1154468
2026-01-08 11:53:10,1177467
2026-01-08 11:53:11,1195238
2026-01-08 11:53:12,1200465
2026-01-08 11:53:13,1151703
2026-01-08 11:53:14,1141910
2026-01-08 11:53:15,1141256
2026-01-08 11:53:16,1186162
2026-01-08 11:53:17,1113442
2026-01-08 11:53:18,969931
2026-01-08 11:53:19,1125802
2026-01-08 11:53:20,1241800
2026-01-08 11:53:21,1171548
2026-01-08 11:53:22,1190403
2026-01-08 11:53:23,1153913
2026-01-08 11:53:24,1178715
2026-01-08 11:53:25,1204163
2026-01-08 11:53:26,1273561
2026-01-08 11:53:27,1168923
2026-01-08 11:53:28,1172548
2026-01-08 11:53:29,1197902
2026-01-08 11:53:30,1161212
2026-01-08 11:53:31,1031525
2026-01-08 11:53:32,1106932
2026-01-08 11:53:33,1194370
2026-01-08 11:53:34,1232224
2026-01-08 11:53:35,1150089
2026-01-08 11:53:36,1231779
2026-01-08 11:53:37,1269331
2026-01-08 11:53:38,1127588
2026-01-08 11:53:39,1303583
2026-01-08 11:53:40,1165377
2026-01-08 11:53:41,1286495
2026-01-08 11:53:42,1198715
2026-01-08 11:53:43,1209651
2026-01-08 11:53:44,1253160
2026-01-08 11:53:45,1331978
2026-01-08 11:53:46,1225466
2026-01-08 11:53:47,1263713
2026-01-08 11:53:48,1161590
2026-01-08 11:53:49,1194012
2026-01-08 11:53:50,1168118
2026-01-08 11:53:51,1217631
2026-01-08 11:53:52,1174625
2026-01-08 11:53:53,1210929
2026-01-08 11:53:54,1112615
2026-01-08 11:53:55,1348899
2026-01-08 11:53:56,1140631
2026-01-08 11:53:57,1248899
2026-01-08 11:53:58,1165895
2026-01-08 11:53:59,1187057
2026-01-08 11:54:00,1243828
2026-01-08 11:54:01,1213781
2026-01-08 11:54:02,1214778
2026-01-08 11:54:03,1243491
2026-01-08 11:54:04,1159065
2026-01-08 11:54:05,1094691
2026-01-08 11:54:06,1254175
2026-01-08 11:54:07,1179627
2026-01-08 11:54:08,1113646
2026-01-08 11:54:09,1058855
2026-01-08 11:54:10,1149536
2026-01-08 11:54:11,1123704
2026-01-08 11:54:12,1160830
2026-01-08 11:54:13,1079455
2026-01-08 11:54:14,1181734
2026-01-08 11:54:15,1222277
2026-01-08 11:54:16,1221510
2026-01-08 11:54:17,1185248
2026-01-08 11:54:18,1166678
2026-01-08 11:54:19,1248096
2026-01-08 11:54:20,1157916
2026-01-08 11:54:21,1115916
2026-01-08 11:54:22,1185752
2026-01-08 11:54:23,1152978
2026-01-08 11:54:24,1091189
2026-01-08 11:54:25,1159478
2026-01-08 11:54:26,1146835
2026-01-08 11:54:27,1140831
2026-01-08 11:54:28,881088
2026-01-08 11:54:29,1223847
2026-01-08 11:54:30,1286000
2026-01-08 11:54:31,1187494
2026-01-08 11:54:32,1161242
2026-01-08 11:54:33,1197955
2026-01-08 11:54:34,1255677
2026-01-08 11:54:35,1253522
2026-01-08 11:54:36,1230525
2026-01-08 11:54:37,1112534
2026-01-08 11:54:38,1184168
2026-01-08 11:54:39,1201182
2026-01-08 11:54:40,1245828
2026-01-08 11:54:41,1232724
2026-01-08 11:54:42,1202822
2026-01-08 11:54:43,1295716
2026-01-08 11:54:44,1251447
2026-01-08 11:54:45,1202470
2026-01-08 11:54:46,1224862
2026-01-08 11:54:47,1178449
2026-01-08 11:54:48,1217651
2026-01-08 11:54:49,1273140
2026-01-08 11:54:50,1266999
2026-01-08 11:54:51,1203863
2026-01-08 11:54:52,1187183
2026-01-08 11:54:53,1147260
2026-01-08 11:54:54,1169865
2026-01-08 11:54:55,1336445
2026-01-08 11:54:56,1152279
2026-01-08 11:54:57,1245059
2026-01-08 11:54:58,1118276
2026-01-08 11:54:59,1209260
2026-01-08 11:55:00,1176491
2026-01-08 11:55:01,1267394
2026-01-08 11:55:02,1150418
2026-01-08 11:55:03,1129370
2026-01-08 11:55:04,1116200
2026-01-08 11:55:05,1207208
2026-01-08 11:55:06,1216156
2026-01-08 11:55:07,1156062
2026-01-08 11:55:08,1214414
2026-01-08 11:55:09,1090549
2026-01-08 11:55:10,1276013
2026-01-08 11:55:11,1263764
2026-01-08 11:55:12,1190091
2026-01-08 11:55:13,1245195
2026-01-08 11:55:14,1236380
2026-01-08 11:55:15,1128715
2026-01-08 11:55:16,1199844
2026-01-08 11:55:17,1256210
2026-01-08 11:55:18,1232700
2026-01-08 11:55:19,1298823
2026-01-08 11:55:20,1171853
2026-01-08 11:55:21,1184181
2026-01-08 11:55:22,1205643
2026-01-08 11:55:23,1291132
2026-01-08 11:55:24,1227975
2026-01-08 11:55:25,1141760
2026-01-08 11:55:26,1202778
2026-01-08 11:55:27,1222667
2026-01-08 11:55:28,1226686
2026-01-08 11:55:29,1232440
2026-01-08 11:55:30,1220013
2026-01-08 11:55:31,1237954
2026-01-08 11:55:32,1290322
2026-01-08 11:55:33,1269089
2026-01-08 11:55:34,1304954
2026-01-08 11:55:35,1298201
2026-01-08 11:55:36,1243921
2026-01-08 11:55:37,1293111
2026-01-08 11:55:38,1285042
2026-01-08 11:55:39,1293218
2026-01-08 11:55:40,1249438
2026-01-08 11:55:41,1232504
2026-01-08 11:55:42,1217701
2026-01-08 11:55:43,1208509
2026-01-08 11:55:44,1322097
2026-01-08 11:55:45,1256180
2026-01-08 11:55:46,1300724
2026-01-08 11:55:47,1317303
2026-01-08 11:55:48,1264045
2026-01-08 11:55:49,1382314
2026-01-08 11:55:50,1299811
2026-01-08 11:55:51,1202930
2026-01-08 11:55:52,1283129
2026-01-08 11:55:53,1239749
2026-01-08 11:55:54,1248065
2026-01-08 11:55:55,1355976
2026-01-08 11:55:56,1235316
2026-01-08 11:55:57,1226787
2026-01-08 11:55:58,1252236
2026-01-08 11:55:59,1261188
2026-01-08 11:56:00,1242871
2026-01-08 11:56:01,1226305
2026-01-08 11:56:02,1219609
2026-01-08 11:56:03,1238477
2026-01-08 11:56:04,1244372
2026-01-08 11:56:05,1191920
2026-01-08 11:56:06,1259804
2026-01-08 11:56:07,1219135
2026-01-08 11:56:08,1301098
2026-01-08 11:56:09,1249641
2026-01-08 11:56:10,1220980
2026-01-08 11:56:11,1262682
2026-01-08 11:56:12,1272266
2026-01-08 11:56:13,1328857
2026-01-08 11:56:14,1275496
2026-01-08 11:56:15,1232205
2026-01-08 11:56:16,1256847
2026-01-08 11:56:17,1184967
2026-01-08 11:56:18,1253412
2026-01-08 11:56:19,1208780
2026-01-08 11:56:20,1251837
2026-01-08 11:56:21,1232089
2026-01-08 11:56:22,1225817
2026-01-08 11:56:23,1061345
2026-01-08 11:56:24,1194881
2026-01-08 11:56:25,1130428
2026-01-08 11:56:26,1234286
2026-01-08 11:56:27,1186274
2026-01-08 11:56:28,1115609
2026-01-08 11:56:29,1224140
2026-01-08 11:56:30,1297846
2026-01-08 11:56:31,1190967
2026-01-08 11:56:32,1337479
2026-01-08 11:56:33,1328107
2026-01-08 11:56:34,1282347
2026-01-08 11:56:35,1282078
2026-01-08 11:56:36,1421434
2026-01-08 11:56:37,1253270
2026-01-08 11:56:38,1306515
2026-01-08 11:56:39,1294951
2026-01-08 11:56:40,1443590
2026-01-08 11:56:41,1316651
2026-01-08 11:56:42,1287972
2026-01-08 11:56:43,1377646
2026-01-08 11:56:44,1328429
2026-01-08 11:56:45,1280782
2026-01-08 11:56:46,1269379
2026-01-08 11:56:47,1357702
2026-01-08 11:56:48,1271228
2026-01-08 11:56:49,1290363
2026-01-08 11:56:50,1371932
2026-01-08 11:56:51,1264341
2026-01-08 11:56:52,1238419
2026-01-08 11:56:53,1444050
2026-01-08 11:56:54,1315014
2026-01-08 11:56:55,1267569
2026-01-08 11:56:56,1382447
2026-01-08 11:56:57,1281262
2026-01-08 11:56:58,1172199
2026-01-08 11:56:59,1254657
2026-01-08 11:57:00,1386814
2026-01-08 11:57:01,1165394
2026-01-08 11:57:02,1246586
2026-01-08 11:57:03,1250606
2026-01-08 11:57:04,1263148
2026-01-08 11:57:05,1253771
2026-01-08 11:57:06,1182308
2026-01-08 11:57:07,1142707
2026-01-08 11:57:08,1302820
2026-01-08 11:57:09,1176507
2026-01-08 11:57:10,1295416
2026-01-08 11:57:11,1452123
2026-01-08 11:57:12,1332577
2026-01-08 11:57:13,1237141
2026-01-08 11:57:14,1320184
2026-01-08 11:57:15,1448630
2026-01-08 11:57:16,1293537
2026-01-08 11:57:17,1322807
2026-01-08 11:57:18,1366988
2026-01-08 11:57:19,1323289
2026-01-08 11:57:20,1259313
2026-01-08 11:57:21,1286183
2026-01-08 11:57:22,1420051
2026-01-08 11:57:23,1283526
2026-01-08 11:57:24,1227071
2026-01-08 11:57:25,1331351
2026-01-08 11:57:26,1289311
2026-01-08 11:57:27,1271977
2026-01-08 11:57:28,1231983
2026-01-08 11:57:29,1230948
2026-01-08 11:57:30,1298000
2026-01-08 11:57:31,1276313
2026-01-08 11:57:32,1313763
2026-01-08 11:57:33,1398358
2026-01-08 11:57:34,1389964
2026-01-08 11:57:35,1462979
2026-01-08 11:57:36,1278702
2026-01-08 11:57:37,1257980
2026-01-08 11:57:38,1380838
2026-01-08 11:57:39,1336409
2026-01-08 11:57:40,1342610
2026-01-08 11:57:41,1447022
2026-01-08 11:57:42,1420426
2026-01-08 11:57:43,1572233
2026-01-08 11:57:44,1345827
2026-01-08 11:57:45,1403805
2026-01-08 11:57:46,1421546
2026-01-08 11:57:47,1351522
2026-01-08 11:57:48,1617799
2026-01-08 11:57:49,1344547
2026-01-08 11:57:50,1564736
2026-01-08 11:57:51,1347253
2026-01-08 11:57:52,1468637
2026-01-08 11:57:53,1469592
2026-01-08 11:57:54,1396902
2026-01-08 11:57:55,1349339
2026-01-08 11:57:56,1481070
2026-01-08 11:57:57,1342881
2026-01-08 11:57:58,1553047
2026-01-08 11:57:59,1392758
2026-01-08 11:58:00,1437036
2026-01-08 11:58:01,1497321
2026-01-08 11:58:02,1344331
2026-01-08 11:58:03,1615331
2026-01-08 11:58:04,1373592
2026-01-08 11:58:05,1487677
2026-01-08 11:58:06,1528632
2026-01-08 11:58:07,1370075
2026-01-08 11:58:08,1484959
2026-01-08 11:58:09,1364345
2026-01-08 11:58:10,1555216
2026-01-08 11:58:11,1383915
2026-01-08 11:58:12,1518160
2026-01-08 11:58:13,1316485
2026-01-08 11:58:14,1518774
2026-01-08 11:58:15,1335890
2026-01-08 11:58:16,1546866
2026-01-08 11:58:17,1378079
2026-01-08 11:58:18,1500590
2026-01-08 11:58:19,1319405
2026-01-08 11:58:20,1571564
2026-01-08 11:58:21,1464640
2026-01-08 11:58:22,1364804
2026-01-08 11:58:23,1470881
2026-01-08 11:58:24,1399200
2026-01-08 11:58:25,1494559
2026-01-08 11:58:26,1419635
2026-01-08 11:58:27,1366663
2026-01-08 11:58:28,1343461
2026-01-08 11:58:29,1400326
2026-01-08 11:58:30,1470625
2026-01-08 11:58:31,1348336
2026-01-08 11:58:32,1615573
2026-01-08 11:58:33,1336624
2026-01-08 11:58:34,1355531
2026-01-08 11:58:35,1309874
2026-01-08 11:58:36,1362971
2026-01-08 11:58:37,1277878
2026-01-08 11:58:38,1324697
2026-01-08 11:58:39,1513811
2026-01-08 11:58:40,1291798
2026-01-08 11:58:41,1232596
2026-01-08 11:58:42,1267140
2026-01-08 11:58:43,1259511
2026-01-08 11:58:44,1200369
2026-01-08 11:58:45,1263832
2026-01-08 11:58:46,1465062
2026-01-08 11:58:47,1363659
2026-01-08 11:58:48,1308856
2026-01-08 11:58:49,1329089
2026-01-08 11:58:50,1364852
2026-01-08 11:58:51,1404448
2026-01-08 11:58:52,1323861
2026-01-08 11:58:53,1362447
2026-01-08 11:58:54,1494240
2026-01-08 11:58:55,1294900
2026-01-08 11:58:56,1272725
2026-01-08 11:58:57,1504025
2026-01-08 11:58:58,1367746
2026-01-08 11:58:59,1302662
2026-01-08 11:59:00,1366941
2026-01-08 11:59:01,1342356
2026-01-08 11:59:02,1390343
2026-01-08 11:59:03,1364348
2026-01-08 11:59:04,1285204
2026-01-08 11:59:05,1368190
2026-01-08 11:59:06,1312019
2026-01-08 11:59:07,1334861
2026-01-08 11:59:08,1277573
2026-01-08 11:59:09,1266695
2026-01-08 11:59:10,1306962
2026-01-08 11:59:11,1231263
2026-01-08 11:59:12,1322470
2026-01-08 11:59:13,1312246
2026-01-08 11:59:14,1267573
2026-01-08 11:59:15,1269447
2026-01-08 11:59:16,1305293
2026-01-08 11:59:17,1420738
2026-01-08 11:59:18,1273334
2026-01-08 11:59:19,1273548
2026-01-08 11:59:20,1267283
2026-01-08 11:59:21,1294329
2026-01-08 11:59:22,1249478
2026-01-08 11:59:23,1375789
2026-01-08 11:59:24,1234987
2026-01-08 11:59:25,1268493
2026-01-08 11:59:26,1237698
2026-01-08 11:59:27,1320334
2026-01-08 11:59:28,1222498
2026-01-08 11:59:29,1160735
2026-01-08 11:59:30,1169990
2026-01-08 11:59:31,1240940
2026-01-08 11:59:32,1359438
2026-01-08 11:59:33,1277492
2026-01-08 11:59:34,1217188
2026-01-08 11:59:35,1190820
2026-01-08 11:59:36,1224330
2026-01-08 11:59:37,1153355
2026-01-08 11:59:38,1249478
2026-01-08 11:59:39,1199460
2026-01-08 11:59:40,1229692
2026-01-08 11:59:41,1241113
2026-01-08 11:59:42,1217134
2026-01-08 11:59:43,1280259
2026-01-08 11:59:44,1235863
2026-01-08 11:59:45,1221110
2026-01-08 11:59:46,1293346
2026-01-08 11:59:47,1280924
2026-01-08 11:59:48,1222137
2026-01-08 11:59:49,1217310
2026-01-08 11:59:50,1206658
2026-01-08 11:59:51,1358420
2026-01-08 11:59:52,1136422
2026-01-08 11:59:53,1134745
2026-01-08 11:59:54,1244555
2026-01-08 11:59:55,1177206
2026-01-08 11:59:56,1187621
2026-01-08 11:59:57,1262750
2026-01-08 11:59:58,1272932
2026-01-08 11:59:59,1241382
2026-01-08 12:00:00,1188648
2026-01-08 12:00:01,1150023
2026-01-08 12:00:02,1160676
2026-01-08 12:00:03,1216870
2026-01-08 12:00:04,1143237
2026-01-08 12:00:05,1074016
2026-01-08 12:00:06,1030784
2026-01-08 12:00:07,1061665
2026-01-08 12:00:08,1115174
2026-01-08 12:00:09,1097938
2026-01-08 12:00:10,1186677
2026-01-08 12:00:11,1107343
2026-01-08 12:00:12,1116952
2026-01-08 12:00:13,1264590
2026-01-08 12:00:14,1082739
2026-01-08 12:00:15,1081903
2026-01-08 12:00:16,1092493
2026-01-08 12:00:17,1197509
2026-01-08 12:00:18,1164198
2026-01-08 12:00:19,1101627
2026-01-08 12:00:20,1014509
2026-01-08 12:00:21,1149862
2026-01-08 12:00:22,1164912
2026-01-08 12:00:23,977387
2026-01-08 12:00:24,1039085
2026-01-08 12:00:25,1048492
2026-01-08 12:00:26,1006096
2026-01-08 12:00:27,1133288
2026-01-08 12:00:28,1208223
2026-01-08 12:00:29,1068192
2026-01-08 12:00:30,961306
2026-01-08 12:00:31,1075248
2026-01-08 12:00:32,1133819
2026-01-08 12:00:33,1112673
2026-01-08 12:00:34,1051437
2026-01-08 12:00:35,1046454
2026-01-08 12:00:36,1101795
2026-01-08 12:00:37,1134389
2026-01-08 12:00:38,1203565
2026-01-08 12:00:39,1207609
2026-01-08 12:00:40,1067665
2026-01-08 12:00:41,1162281
2026-01-08 12:00:42,1177931
2026-01-08 12:00:43,1236517
2026-01-08 12:00:44,1220864
2026-01-08 12:00:45,1216690
2026-01-08 12:00:46,1131122
2026-01-08 12:00:47,1176908
2026-01-08 12:00:48,1198527
2026-01-08 12:00:49,1197793
2026-01-08 12:00:50,1165974
2026-01-08 12:00:51,1065941
2026-01-08 12:00:52,1208534
2026-01-08 12:00:53,1178255
2026-01-08 12:00:54,1203009
2026-01-08 12:00:55,1166979
2026-01-08 12:00:56,1200168
2026-01-08 12:00:57,1108502
2026-01-08 12:00:58,1114002
2026-01-08 12:00:59,1032006
2026-01-08 12:01:00,1072697
2026-01-08 12:01:01,1188802
2026-01-08 12:01:02,1048003
2026-01-08 12:01:03,1136952
2026-01-08 12:01:04,1205273
2026-01-08 12:01:05,1309971
2026-01-08 12:01:06,1275603
2026-01-08 12:01:07,1112511
2026-01-08 12:01:08,1122006
2026-01-08 12:01:09,1155789
2026-01-08 12:01:10,1184751
2026-01-08 12:01:11,1177017
2026-01-08 12:01:12,1111602
2026-01-08 12:01:13,1197161
2026-01-08 12:01:14,1205280
2026-01-08 12:01:15,1245734
2026-01-08 12:01:16,1208645
2026-01-08 12:01:17,1178052
2026-01-08 12:01:18,1209143
2026-01-08 12:01:19,1230409
2026-01-08 12:01:20,711807
2026-01-08 12:01:21,1281062
2026-01-08 12:01:22,1301583
2026-01-08 12:01:23,1381844
2026-01-08 12:01:24,1268460
2026-01-08 12:01:25,1269325
2026-01-08 12:01:26,1319999
2026-01-08 12:01:27,1259484
2026-01-08 12:01:28,1262576
2026-01-08 12:01:29,1287614
2026-01-08 12:01:30,1224872
2026-01-08 12:01:31,1244859
2026-01-08 12:01:32,1201885
2026-01-08 12:01:33,1223231
2026-01-08 12:01:34,1254998
2026-01-08 12:01:35,1286151
2026-01-08 12:01:36,1355249
2026-01-08 12:01:37,1331806
2026-01-08 12:01:38,1309177
2026-01-08 12:01:39,1278212
2026-01-08 12:01:40,1199443
2026-01-08 12:01:41,1311551
2026-01-08 12:01:42,1284697
2026-01-08 12:01:43,1219398
2026-01-08 12:01:44,1377585
2026-01-08 12:01:45,1257713
2026-01-08 12:01:46,1308782
2026-01-08 12:01:47,1309147
2026-01-08 12:01:48,1293265
2026-01-08 12:01:49,1236927
2026-01-08 12:01:50,1239851
2026-01-08 12:01:51,1282874
2026-01-08 12:01:52,1342979
2026-01-08 12:01:53,1312652
2026-01-08 12:01:54,1293894
2026-01-08 12:01:55,1178148
2026-01-08 12:01:56,1200151
2026-01-08 12:01:57,1229406
2026-01-08 12:01:58,1300776
2026-01-08 12:01:59,1284905
2026-01-08 12:02:00,1189297
2026-01-08 12:02:01,1199999
2026-01-08 12:02:02,1336108
2026-01-08 12:02:03,1188260
2026-01-08 12:02:04,1272760
2026-01-08 12:02:05,1157840
2026-01-08 12:02:06,1254840
2026-01-08 12:02:07,1331879
2026-01-08 12:02:08,1261510
2026-01-08 12:02:09,1285597
2026-01-08 12:02:10,1241444
2026-01-08 12:02:11,1133498
2026-01-08 12:02:12,1339533
2026-01-08 12:02:13,1319413
2026-01-08 12:02:14,1217052
2026-01-08 12:02:15,1189963
2026-01-08 12:02:16,1262262
2026-01-08 12:02:17,1177153
2026-01-08 12:02:18,1290738
2026-01-08 12:02:19,1302794
2026-01-08 12:02:20,1225153
2026-01-08 12:02:21,1188432
2026-01-08 12:02:22,1207424
2026-01-08 12:02:23,1208672
2026-01-08 12:02:24,1243008
2026-01-08 12:02:25,1136989
2026-01-08 12:02:26,1147865
2026-01-08 12:02:27,1193634
2026-01-08 12:02:28,1162677
2026-01-08 12:02:29,1169291
2026-01-08 12:02:30,1256601
2026-01-08 12:02:31,1176840
2026-01-08 12:02:32,1123929
2026-01-08 12:02:33,1083965
2026-01-08 12:02:34,1182419
2026-01-08 12:02:35,1214151
2026-01-08 12:02:36,1210381
2026-01-08 12:02:37,1290659
2026-01-08 12:02:38,1208066
2026-01-08 12:02:39,1209700
2026-01-08 12:02:40,1212408
2026-01-08 12:02:41,1244110
2026-01-08 12:02:42,1224098
2026-01-08 12:02:43,1261901
2026-01-08 12:02:44,1269364
2026-01-08 12:02:45,1258559
2026-01-08 12:02:46,1274447
2026-01-08 12:02:47,1247548
2026-01-08 12:02:48,1260339
2026-01-08 12:02:49,1269255
2026-01-08 12:02:50,1294266
2026-01-08 12:02:51,1275813
2026-01-08 12:02:52,1287364
2026-01-08 12:02:53,1249424
2026-01-08 12:02:54,1263455
2026-01-08 12:02:55,1212121
2026-01-08 12:02:56,1239359
2026-01-08 12:02:57,1310222
2026-01-08 12:02:58,1241317
2026-01-08 12:02:59,1328689
2026-01-08 12:03:00,1288784
2026-01-08 12:03:01,1266527
2026-01-08 12:03:02,1289870
2026-01-08 12:03:03,1307521
2026-01-08 12:03:04,1268476
2026-01-08 12:03:05,1320466
2026-01-08 12:03:06,1634321
2026-01-08 12:03:07,1739407
2026-01-08 12:03:08,1679261
2026-01-08 12:03:09,1628710
2026-01-08 12:03:10,1675953
2026-01-08 12:03:11,1693682
2026-01-08 12:03:12,1605966
2026-01-08 12:03:13,1665479
2026-01-08 12:03:14,1757207
2026-01-08 12:03:15,1741480
2026-01-08 12:03:16,1779567
2026-01-08 12:03:17,1799474
2026-01-08 12:03:18,1723456
2026-01-08 12:03:19,1753915
2026-01-08 12:03:20,1706357
2026-01-08 12:03:21,1706936
2026-01-08 12:03:22,1727429
2026-01-08 12:03:23,1728012
2026-01-08 12:03:24,1789994
2026-01-08 12:03:25,1755901
2026-01-08 12:03:26,1750701
2026-01-08 12:03:27,1725636
2026-01-08 12:03:28,1717704
2026-01-08 12:03:29,1745208
2026-01-08 12:03:30,1726309
2026-01-08 12:03:31,1794614
2026-01-08 12:03:32,1723744
2026-01-08 12:03:33,1738154
2026-01-08 12:03:34,1508586
2026-01-08 12:03:35,1754962
2026-01-08 12:03:36,1811029
2026-01-08 12:03:37,1548314
2026-01-08 12:03:38,1658101
2026-01-08 12:03:39,1607378
2026-01-08 12:03:40,1611377
2026-01-08 12:03:41,1597787
2026-01-08 12:03:42,1634187
2026-01-08 12:03:43,1589716
2026-01-08 12:03:44,1631786
2026-01-08 12:03:45,1601782
2026-01-08 12:03:46,1648172
2026-01-08 12:03:47,1629109
2026-01-08 12:03:48,1632591
2026-01-08 12:03:49,1674092
2026-01-08 12:03:50,1648106
2026-01-08 12:03:51,1627455
2026-01-08 12:03:52,1716665
2026-01-08 12:03:53,1768370
2026-01-08 12:03:54,1756087
2026-01-08 12:03:55,1752805
2026-01-08 12:03:56,1713543
2026-01-08 12:03:57,1683960
2026-01-08 12:03:58,1815067
2026-01-08 12:03:59,1755379
2026-01-08 12:04:00,1772835
2026-01-08 12:04:01,1785676
2026-01-08 12:04:02,1842971
2026-01-08 12:04:03,1766262
2026-01-08 12:04:04,1831517
2026-01-08 12:04:05,1761652
2026-01-08 12:04:06,1785761
2026-01-08 12:04:07,1782035
2026-01-08 12:04:08,1811710
2026-01-08 12:04:09,1788879
2026-01-08 12:04:10,1677490
2026-01-08 12:04:11,1726561
2026-01-08 12:04:12,1761934
2026-01-08 12:04:13,1768063
2026-01-08 12:04:14,1776307
2026-01-08 12:04:15,1755583
2026-01-08 12:04:16,1707515
2026-01-08 12:04:17,1681393
2026-01-08 12:04:18,1701528
2026-01-08 12:04:19,1728034
2026-01-08 12:04:20,1749043
2026-01-08 12:04:21,1715660
2026-01-08 12:04:22,1653231
2026-01-08 12:04:23,1762031
2026-01-08 12:04:24,1760386
2026-01-08 12:04:25,1777025
2026-01-08 12:04:26,1688203
2026-01-08 12:04:27,1665421
2026-01-08 12:04:28,1801110
2026-01-08 12:04:29,1707568
2026-01-08 12:04:30,1750960
2026-01-08 12:04:31,1814352
2026-01-08 12:04:32,1712860
2026-01-08 12:04:33,1701600
2026-01-08 12:04:34,1683795
2026-01-08 12:04:35,1484450
2026-01-08 12:04:36,1558245
2026-01-08 12:04:37,1639275
2026-01-08 12:04:38,1606773
2026-01-08 12:04:39,1612769
2026-01-08 12:04:40,1585795
2026-01-08 12:04:41,1623735
2026-01-08 12:04:42,1458323
2026-01-08 12:04:43,1579039
2026-01-08 12:04:44,1518348
2026-01-08 12:04:45,1609272
2026-01-08 12:04:46,1582558
2026-01-08 12:04:47,1664604
2026-01-08 12:04:48,1676938
2026-01-08 12:04:49,1595682
2026-01-08 12:04:50,1565273
2026-01-08 12:04:51,1620602
2026-01-08 12:04:52,1626595
2026-01-08 12:04:53,1085487
2026-01-08 12:04:54,1437326
2026-01-08 12:04:55,1473218
2026-01-08 12:04:56,1545701
2026-01-08 12:04:57,1567735
2026-01-08 12:04:58,1650627
2026-01-08 12:04:59,1586626
2026-01-08 12:05:00,1604277
2026-01-08 12:05:01,1649189
2026-01-08 12:05:02,1665421
2026-01-08 12:05:03,1679742
2026-01-08 12:05:04,1648855
2026-01-08 12:05:05,1577914
2026-01-08 12:05:06,1613520
2026-01-08 12:05:07,1617959
2026-01-08 12:05:08,1641836
2026-01-08 12:05:09,1538713
2026-01-08 12:05:10,1695441
2026-01-08 12:05:11,1747090
2026-01-08 12:05:12,1683616
2026-01-08 12:05:13,1793103
2026-01-08 12:05:14,1777543
2026-01-08 12:05:15,1760376
2026-01-08 12:05:16,1774930
2026-01-08 12:05:17,1733675
2026-01-08 12:05:18,1761373
2026-01-08 12:05:19,1772162
2026-01-08 12:05:20,1788779
2026-01-08 12:05:21,1651168
2026-01-08 12:05:22,1609294
2026-01-08 12:05:23,1691022
2026-01-08 12:05:24,1749933
2026-01-08 12:05:25,1744394
2026-01-08 12:05:26,1663346
2026-01-08 12:05:27,1595500
2026-01-08 12:05:28,1694135
2026-01-08 12:05:29,1753461
2026-01-08 12:05:30,1715185
2026-01-08 12:05:31,1722839
2026-01-08 12:05:32,1776103
2026-01-08 12:05:33,1798271
2026-01-08 12:05:34,1761239
2026-01-08 12:05:35,1660849
2026-01-08 12:05:36,1595106
2026-01-08 12:05:37,1683315
2026-01-08 12:05:38,1800431
2026-01-08 12:05:39,1712651
2026-01-08 12:05:40,1784318
2026-01-08 12:05:41,1761704
2026-01-08 12:05:42,1725392
2026-01-08 12:05:43,1732351
2026-01-08 12:05:44,1738190
2026-01-08 12:05:45,1767323
2026-01-08 12:05:46,1776780
2026-01-08 12:05:47,1735334
2026-01-08 12:05:48,1745242
2026-01-08 12:05:49,1788029
2026-01-08 12:05:50,1768652
2026-01-08 12:05:51,1750203
2026-01-08 12:05:52,1748321
2026-01-08 12:05:53,1783219
2026-01-08 12:05:54,1662643
2026-01-08 12:05:55,1683837
2026-01-08 12:05:56,1709287
2026-01-08 12:05:57,1754405
2026-01-08 12:05:58,1772242
2026-01-08 12:05:59,1659261
2026-01-08 12:06:00,1688413
2026-01-08 12:06:01,1730652
2026-01-08 12:06:02,1702494
2026-01-08 12:06:03,1697940
2026-01-08 12:06:04,1711344
2026-01-08 12:06:05,1663020
2026-01-08 12:06:06,1718442
2026-01-08 12:06:07,1712098
2026-01-08 12:06:08,1678430
2026-01-08 12:06:09,1724438
2026-01-08 12:06:10,1676507
2026-01-08 12:06:11,1326656
2026-01-08 12:06:12,1507923
2026-01-08 12:06:13,1559062
2026-01-08 12:06:14,1583779
2026-01-08 12:06:15,1601211
2026-01-08 12:06:16,1575239
2026-01-08 12:06:17,1523595
2026-01-08 12:06:18,1375786
2026-01-08 12:06:19,1657522
2026-01-08 12:06:20,1644690
2026-01-08 12:06:21,1551059
2026-01-08 12:06:22,1506656
2026-01-08 12:06:23,1573707
2026-01-08 12:06:24,1594295
2026-01-08 12:06:25,1624598
2026-01-08 12:06:26,1645383
2026-01-08 12:06:27,1492722
2026-01-08 12:06:28,1476749
2026-01-08 12:06:29,1655127
2026-01-08 12:06:30,1628598
2026-01-08 12:06:31,1693793
2026-01-08 12:06:32,1717115
2026-01-08 12:06:33,1691432
2026-01-08 12:06:34,1625114
2026-01-08 12:06:35,1707479
2026-01-08 12:06:36,1685470
2026-01-08 12:06:37,1650002
2026-01-08 12:06:38,1623310
2026-01-08 12:06:39,1673559
2026-01-08 12:06:40,1632936
2026-01-08 12:06:41,1706189
2026-01-08 12:06:42,1734535
2026-01-08 12:06:43,1737983
2026-01-08 12:06:44,1686081
2026-01-08 12:06:45,1717721
2026-01-08 12:06:46,1693315
2026-01-08 12:06:47,1715151
2026-01-08 12:06:48,1736083
2026-01-08 12:06:49,1704047
2026-01-08 12:06:50,1701150
2026-01-08 12:06:51,1701487
2026-01-08 12:06:52,1676514
2026-01-08 12:06:53,1726592
2026-01-08 12:06:54,1715137
2026-01-08 12:06:55,1708869
2026-01-08 12:06:56,1731207
2026-01-08 12:06:57,1670746
2026-01-08 12:06:58,1623935
2026-01-08 12:06:59,1648766
2026-01-08 12:07:00,1688547
2026-01-08 12:07:01,1707669
2026-01-08 12:07:02,1704118
2026-01-08 12:07:03,1667715
2026-01-08 12:07:04,1713619
2026-01-08 12:07:05,1729461
2026-01-08 12:07:06,1684047
2026-01-08 12:07:07,1680639
2026-01-08 12:07:08,1717008
2026-01-08 12:07:09,1656507
2026-01-08 12:07:10,1661631
2026-01-08 12:07:11,1715522
2026-01-08 12:07:12,1716185
2026-01-08 12:07:13,1704111
2026-01-08 12:07:14,1736537
2026-01-08 12:07:15,1636353
2026-01-08 12:07:16,1746534
2026-01-08 12:07:17,1720291
2026-01-08 12:07:18,1777809
2026-01-08 12:07:19,1671247
2026-01-08 12:07:20,1764900
2026-01-08 12:07:21,1591270
2026-01-08 12:07:22,1741057
2026-01-08 12:07:23,1699450
2026-01-08 12:07:24,1727466
2026-01-08 12:07:25,1595051
2026-01-08 12:07:26,1694010
2026-01-08 12:07:27,1685386
2026-01-08 12:07:28,1747333
2026-01-08 12:07:29,1716098
2026-01-08 12:07:30,1337171
2026-01-08 12:07:31,1485415
2026-01-08 12:07:32,1440120
2026-01-08 12:07:33,1561492
2026-01-08 12:07:34,1558645
2026-01-08 12:07:35,1516677
2026-01-08 12:07:36,1600388
2026-01-08 12:07:37,1488341
2026-01-08 12:07:38,1502513
2026-01-08 12:07:39,1473699
2026-01-08 12:07:40,1479514
2026-01-08 12:07:41,1583189
2026-01-08 12:07:42,1630940
2026-01-08 12:07:43,1634613
2026-01-08 12:07:44,1588094
2026-01-08 12:07:45,1559099
2026-01-08 12:07:46,1697155
2026-01-08 12:07:47,1629356
2026-01-08 12:07:48,1631817
2026-01-08 12:07:49,1621009
2026-01-08 12:07:50,1693745
2026-01-08 12:07:51,1663770
2026-01-08 12:07:52,1692970
2026-01-08 12:07:53,1685435
2026-01-08 12:07:54,1701240
2026-01-08 12:07:55,1643467
2026-01-08 12:07:56,1657239
2026-01-08 12:07:57,1155332
2026-01-08 12:07:58,932084
2026-01-08 12:07:59,1228636
2026-01-08 12:08:00,1226126
2026-01-08 12:08:01,1264555
2026-01-08 12:08:02,1229654
2026-01-08 12:08:03,1242275
2026-01-08 12:08:04,1210617
2026-01-08 12:08:05,1207919
2026-01-08 12:08:06,1241009
2026-01-08 12:08:07,1238311
2026-01-08 12:08:08,1240774
2026-01-08 12:08:09,1223620
2026-01-08 12:08:10,1212785
2026-01-08 12:08:11,1230737
2026-01-08 12:08:12,1183800
2026-01-08 12:08:13,1220076
2026-01-08 12:08:14,1243158
2026-01-08 12:08:15,1231636
2026-01-08 12:08:16,1227699
2026-01-08 12:08:17,1253024
2026-01-08 12:08:18,1262587
2026-01-08 12:08:19,1230125
2026-01-08 12:08:20,1173181
2026-01-08 12:08:21,1218823
2026-01-08 12:08:22,1226003
2026-01-08 12:08:23,1230741
2026-01-08 12:08:24,1212571
2026-01-08 12:08:25,1230775
2026-01-08 12:08:26,1224621
2026-01-08 12:08:27,1208725
2026-01-08 12:08:28,1219293
2026-01-08 12:08:29,1246475
2026-01-08 12:08:30,1239283
2026-01-08 12:08:31,1206727
2026-01-08 12:08:32,1233931
2026-01-08 12:08:33,1234813
2026-01-08 12:08:34,1252044
2026-01-08 12:08:35,1231905
2026-01-08 12:08:36,1277932
2026-01-08 12:08:37,1282537
2026-01-08 12:08:38,1269533
2026-01-08 12:08:39,1265642
2026-01-08 12:08:40,1270696
2026-01-08 12:08:41,1270723
2026-01-08 12:08:42,1245062
2026-01-08 12:08:43,1238580
2026-01-08 12:08:44,1281406
2026-01-08 12:08:45,1282927
2026-01-08 12:08:46,1257676
2026-01-08 12:08:47,1307205
2026-01-08 12:08:48,1283259
2026-01-08 12:08:49,1280279
2026-01-08 12:08:50,1253983
2026-01-08 12:08:51,1031345
2026-01-08 12:08:52,1172344
2026-01-08 12:08:53,1163990
2026-01-08 12:08:54,1225740
2026-01-08 12:08:55,1223995
2026-01-08 12:08:56,1210924
2026-01-08 12:08:57,1215202
2026-01-08 12:08:58,1200942
2026-01-08 12:08:59,1198524
2026-01-08 12:09:00,1208112
2026-01-08 12:09:01,1179808
2026-01-08 12:09:02,1195249
2026-01-08 12:09:03,1195292
2026-01-08 12:09:04,1201192
2026-01-08 12:09:05,1209127
2026-01-08 12:09:06,1200080
2026-01-08 12:09:07,1177899
2026-01-08 12:09:08,1194340
2026-01-08 12:09:09,1197654
2026-01-08 12:09:10,1050691
2026-01-08 12:09:11,1140316
2026-01-08 12:09:12,1146199
2026-01-08 12:09:13,1156066
2026-01-08 12:09:14,1148009
2026-01-08 12:09:15,1162561
2026-01-08 12:09:16,1149000
2026-01-08 12:09:17,1172934
2026-01-08 12:09:18,1163495
2026-01-08 12:09:19,1191111
2026-01-08 12:09:20,1191290
2026-01-08 12:09:21,1198768
2026-01-08 12:09:22,1194031
2026-01-08 12:09:23,1136040
2026-01-08 12:09:24,1185055
2026-01-08 12:09:25,1197489
2026-01-08 12:09:26,1208670
2026-01-08 12:09:27,1206953
2026-01-08 12:09:28,1140096
2026-01-08 12:09:29,1188338
2026-01-08 12:09:30,1225944
2026-01-08 12:09:31,1196939
2026-01-08 12:09:32,1190470
2026-01-08 12:09:33,1195070
2026-01-08 12:09:34,1180484
2026-01-08 12:09:35,1189324
2026-01-08 12:09:36,1206589
2026-01-08 12:09:37,1203515
2026-01-08 12:09:38,1216065
2026-01-08 12:09:39,1207750
2026-01-08 12:09:40,1152543
2026-01-08 12:09:41,1200299
2026-01-08 12:09:42,1229823
2026-01-08 12:09:43,1198373
2026-01-08 12:09:44,1195314
2026-01-08 12:09:45,1234125
2026-01-08 12:09:46,1219541
2026-01-08 12:09:47,1232280
2026-01-08 12:09:48,1199360
2026-01-08 12:09:49,1176950
2026-01-08 12:09:50,1230968
2026-01-08 12:09:51,1226616
2026-01-08 12:09:52,1224709
2026-01-08 12:09:53,1231217
2026-01-08 12:09:54,1224122
2026-01-08 12:09:55,1225288
2026-01-08 12:09:56,1216734
2026-01-08 12:09:57,281615
2026-01-08 12:09:58,123405
2026-01-08 12:09:59,142285
2026-01-08 12:10:00,139660
2026-01-08 12:10:01,146415
2026-01-08 12:10:02,149834
2026-01-08 12:10:03,136349
2026-01-08 12:10:04,142518
2026-01-08 12:10:05,140931
2026-01-08 12:10:06,135361
2026-01-08 12:10:07,153744
2026-01-08 12:10:08,154595
2026-01-08 12:10:09,145473
2026-01-08 12:10:10,143168
2026-01-08 12:10:11,128520
2026-01-08 12:10:12,139111
2026-01-08 12:10:13,131343
2026-01-08 12:10:14,139698
2026-01-08 12:10:15,152119
2026-01-08 12:10:16,120914
2026-01-08 12:10:17,138439
2026-01-08 12:10:18,138628
2026-01-08 12:10:19,153134
2026-01-08 12:10:20,166089
2026-01-08 12:10:21,202179
2026-01-08 12:10:22,149607
2026-01-08 12:10:23,143450
2026-01-08 12:10:24,140037
2026-01-08 12:10:25,136965
2026-01-08 12:10:26,264643
2026-01-08 12:10:27,149862
2026-01-08 12:10:28,150847
2026-01-08 12:10:29,144063
2026-01-08 12:10:30,160833
2026-01-08 12:10:31,145899
2026-01-08 12:10:32,148369
2026-01-08 12:10:33,142365
2026-01-08 12:10:34,149242
2026-01-08 12:10:35,139571
2026-01-08 12:10:36,135192
2026-01-08 12:10:37,142475
2026-01-08 12:10:38,140948
2026-01-08 12:10:39,144394
2026-01-08 12:10:40,147503
2026-01-08 12:10:41,152005
2026-01-08 12:10:42,140704
2026-01-08 12:10:43,136253
2026-01-08 12:10:44,149338
2026-01-08 12:10:45,150450
2026-01-08 12:10:46,137559
2026-01-08 12:10:47,143999
2026-01-08 12:10:48,125545
2026-01-08 12:10:49,148500
2026-01-08 12:10:50,147754
2026-01-08 12:10:51,148764
2026-01-08 12:10:52,145384
2026-01-08 12:10:53,136856
2026-01-08 12:10:54,147368
2026-01-08 12:10:55,124489
2026-01-08 12:10:56,128122
2026-01-08 12:10:57,135886
2026-01-08 12:10:58,127744
2026-01-08 12:10:59,133628
2026-01-08 12:11:00,123485
2026-01-08 12:11:01,139671
2026-01-08 12:11:02,136103
2026-01-08 12:11:03,129394
2026-01-08 12:11:04,128149
2026-01-08 12:11:05,140423
2026-01-08 12:11:06,139407
2026-01-08 12:11:07,122099
2026-01-08 12:11:08,120780
2026-01-08 12:11:09,141052
2026-01-08 12:11:10,122429
2026-01-08 12:11:11,132142
2026-01-08 12:11:12,130426
2026-01-08 12:11:13,136777
2026-01-08 12:11:14,150275
2026-01-08 12:11:15,138006
2026-01-08 12:11:16,124482
2026-01-08 12:11:17,137651
2026-01-08 12:11:18,132191
2026-01-08 12:11:19,128278
2026-01-08 12:11:20,129559
2026-01-08 12:11:21,145878
2026-01-08 12:11:22,146329
2026-01-08 12:11:23,136052
2026-01-08 12:11:24,155279
2026-01-08 12:11:25,135097
2026-01-08 12:11:26,135238
2026-01-08 12:11:27,130665
2026-01-08 12:11:28,119609
2026-01-08 12:11:29,146506
2026-01-08 12:11:30,152302
2026-01-08 12:11:31,140174
2026-01-08 12:11:32,136191
2026-01-08 12:11:33,140904
2026-01-08 12:11:34,153832
2026-01-08 12:11:35,149697
2026-01-08 12:11:36,146930
2026-01-08 12:11:37,153829
2026-01-08 12:11:38,160040
2026-01-08 12:11:39,162957
2026-01-08 12:11:40,141174
2026-01-08 12:11:41,149108
2026-01-08 12:11:42,148605
2026-01-08 12:11:43,129921
2026-01-08 12:11:44,155228
2026-01-08 12:11:45,165495
2026-01-08 12:11:46,142798
2026-01-08 12:11:47,141456
2026-01-08 12:11:48,134413
2026-01-08 12:11:49,147665
2026-01-08 12:11:50,143591
2026-01-08 12:11:51,145134
2026-01-08 12:11:52,149578
2026-01-08 12:11:53,141357
2026-01-08 12:11:54,143074
2026-01-08 12:11:55,138373
2026-01-08 12:11:56,137233
2026-01-08 12:11:57,138989
2026-01-08 12:11:58,143454
2026-01-08 12:11:59,133202
2026-01-08 12:12:00,135604
2026-01-08 12:12:01,161530
2026-01-08 12:12:02,167292
2026-01-08 12:12:03,138189
2026-01-08 12:12:04,135272
2026-01-08 12:12:05,137407
2026-01-08 12:12:06,155097
2026-01-08 12:12:07,137941
2026-01-08 12:12:08,137869
2026-01-08 12:12:09,145411
2026-01-08 12:12:10,149387
2026-01-08 12:12:11,136584
2026-01-08 12:12:12,156467
2026-01-08 12:12:13,158120
2026-01-08 12:12:14,157103
2026-01-08 12:12:15,154916
2026-01-08 12:12:16,134034
2026-01-08 12:12:17,156389
2026-01-08 12:12:18,143302
2026-01-08 12:12:19,148256
2026-01-08 12:12:20,135121
2026-01-08 12:12:21,154274
2026-01-08 12:12:22,169596
2026-01-08 12:12:23,131907
2026-01-08 12:12:24,139812
2026-01-08 12:12:25,150259
2026-01-08 12:12:26,143575
2026-01-08 12:12:27,136398
2026-01-08 12:12:28,126770
2026-01-08 12:12:29,143788
2026-01-08 12:12:30,141690
2026-01-08 12:12:31,145050
2026-01-08 12:12:32,137927
2026-01-08 12:12:33,132750
2026-01-08 12:12:34,143128
2026-01-08 12:12:35,169850
2026-01-08 12:12:36,136255
2026-01-08 12:12:37,141340
2026-01-08 12:12:38,144222
2026-01-08 12:12:39,157077
2026-01-08 12:12:40,131967
2026-01-08 12:12:41,149723
2026-01-08 12:12:42,154000
2026-01-08 12:12:43,156717
2026-01-08 12:12:44,153724
2026-01-08 12:12:45,162453
2026-01-08 12:12:46,173949
2026-01-08 12:12:47,144259
2026-01-08 12:12:48,142087
2026-01-08 12:12:49,170344
2026-01-08 12:12:50,145481
2026-01-08 12:12:51,141985
2026-01-08 12:12:52,144212
2026-01-08 12:12:53,141046
2026-01-08 12:12:54,157719
2026-01-08 12:12:55,137150
2026-01-08 12:12:56,140462
2026-01-08 12:12:57,144648
2026-01-08 12:12:58,144292
2026-01-08 12:12:59,149229
2026-01-08 12:13:00,136464
2026-01-08 12:13:01,154800
2026-01-08 12:13:02,149361
2026-01-08 12:13:03,144562
2026-01-08 12:13:04,151129
2026-01-08 12:13:05,170102
2026-01-08 12:13:06,149273
2026-01-08 12:13:07,139074
2026-01-08 12:13:08,129286
2026-01-08 12:13:09,149134
2026-01-08 12:13:10,142490
2026-01-08 12:13:11,140221
2026-01-08 12:13:12,142229
2026-01-08 12:13:13,163560
2026-01-08 12:13:14,142576
2026-01-08 12:13:15,143778
2026-01-08 12:13:16,122185
2026-01-08 12:13:17,135704
2026-01-08 12:13:18,137725
2026-01-08 12:13:19,138180
2026-01-08 12:13:20,127284
2026-01-08 12:13:21,158323
2026-01-08 12:13:22,169211
2026-01-08 12:13:23,140620
2026-01-08 12:13:24,155502
2026-01-08 12:13:25,141316
2026-01-08 12:13:26,142794
2026-01-08 12:13:27,125689
2026-01-08 12:13:28,131904
2026-01-08 12:13:29,140077
2026-01-08 12:13:30,146593
2026-01-08 12:13:31,138518
2026-01-08 12:13:32,134072
2026-01-08 12:13:33,152402
2026-01-08 12:13:34,149295
2026-01-08 12:13:35,133799
2026-01-08 12:13:36,126400
2026-01-08 12:13:37,132377
2026-01-08 12:13:38,116627
2026-01-08 12:13:39,127916
2026-01-08 12:13:40,130245
2026-01-08 12:13:41,131677
2026-01-08 12:13:42,129884
2026-01-08 12:13:43,122300
2026-01-08 12:13:44,122673
2026-01-08 12:13:45,138089
2026-01-08 12:13:46,125507
2026-01-08 12:13:47,125784
2026-01-08 12:13:48,124028
2026-01-08 12:13:49,130842
2026-01-08 12:13:50,145863
2026-01-08 12:13:51,123417
2026-01-08 12:13:52,117202
2026-01-08 12:13:53,129014
2026-01-08 12:13:54,133921
2026-01-08 12:13:55,124757
2026-01-08 12:13:56,122291
2026-01-08 12:13:57,123668
2026-01-08 12:13:58,124505
2026-01-08 12:13:59,119964
2026-01-08 12:14:00,133650
2026-01-08 12:14:01,133678
2026-01-08 12:14:02,129209
2026-01-08 12:14:03,129591
2026-01-08 12:14:04,131737
2026-01-08 12:14:05,60909
2026-01-08 12:14:06,56812
2026-01-08 12:14:07,48903
2026-01-08 12:14:08,66930
2026-01-08 12:14:09,71622
2026-01-08 12:14:10,69696
2026-01-08 12:14:11,61647
